
Integration time [ms]:   1.000
Averaging Nr. [scans]: 1
Smoothing Nr. [pixels]: 0
Data measured with spectrometer [name]: VIS
Wave   ;Sample   ;Dark     ;Reference
[nm]   ;[counts] ;[counts] ;[counts] 

450.961;  165.850;    0.000;    0.000
451.100;  228.850;    0.000;    0.000
451.239;  212.850;    0.000;    0.000
451.377;  257.850;    0.000;    0.000
451.516;  208.850;    0.000;    0.000
451.655;  202.850;    0.000;    0.000
451.794;  205.850;    0.000;    0.000
451.932;  225.850;    0.000;    0.000
452.071;  228.850;    0.000;    0.000
452.210;  247.850;    0.000;    0.000
452.348;  216.850;    0.000;    0.000
452.487;  238.850;    0.000;    0.000
452.626;  192.850;    0.000;    0.000
452.764;  239.850;    0.000;    0.000
452.903;  209.850;    0.000;    0.000
453.042;  313.850;    0.000;    0.000
453.180; 5456.850;    0.000;    0.000
453.319; 5563.850;    0.000;    0.000
453.458; 5609.850;    0.000;    0.000
453.596; 5700.850;    0.000;    0.000
453.735; 5706.850;    0.000;    0.000
453.873; 5797.850;    0.000;    0.000
454.012; 5697.850;    0.000;    0.000
454.150; 5790.850;    0.000;    0.000
454.289; 5935.850;    0.000;    0.000
454.427; 5934.850;    0.000;    0.000
454.566; 5970.850;    0.000;    0.000
454.704; 6076.850;    0.000;    0.000
454.843; 6058.850;    0.000;    0.000
454.981; 6179.850;    0.000;    0.000
455.120; 6272.850;    0.000;    0.000
455.258; 6288.850;    0.000;    0.000
455.397; 6235.850;    0.000;    0.000
455.535; 6384.850;    0.000;    0.000
455.674; 6385.850;    0.000;    0.000
455.812; 6409.850;    0.000;    0.000
455.951; 6593.850;    0.000;    0.000
456.089; 6695.850;    0.000;    0.000
456.227; 6633.850;    0.000;    0.000
456.366; 6744.850;    0.000;    0.000
456.504; 6690.850;    0.000;    0.000
456.642; 6910.850;    0.000;    0.000
456.781; 6679.850;    0.000;    0.000
456.919; 6550.850;    0.000;    0.000
457.057; 6639.850;    0.000;    0.000
457.196; 6650.850;    0.000;    0.000
457.334; 6620.850;    0.000;    0.000
457.472; 6749.850;    0.000;    0.000
457.610; 6806.850;    0.000;    0.000
457.749; 6913.850;    0.000;    0.000
457.887; 7150.850;    0.000;    0.000
458.025; 7443.850;    0.000;    0.000
458.163; 7338.850;    0.000;    0.000
458.301; 7420.850;    0.000;    0.000
458.440; 7406.850;    0.000;    0.000
458.578; 7606.850;    0.000;    0.000
458.716; 7487.850;    0.000;    0.000
458.854; 7624.850;    0.000;    0.000
458.992; 7527.850;    0.000;    0.000
459.130; 7772.850;    0.000;    0.000
459.269; 7818.850;    0.000;    0.000
459.407; 7875.850;    0.000;    0.000
459.545; 7967.850;    0.000;    0.000
459.683; 7965.850;    0.000;    0.000
459.821; 8001.850;    0.000;    0.000
459.959; 8118.850;    0.000;    0.000
460.097; 8195.850;    0.000;    0.000
460.235; 8195.850;    0.000;    0.000
460.373; 8284.850;    0.000;    0.000
460.511; 8340.850;    0.000;    0.000
460.649; 8306.850;    0.000;    0.000
460.787; 8327.850;    0.000;    0.000
460.925; 8329.850;    0.000;    0.000
461.063; 8499.850;    0.000;    0.000
461.201; 8525.850;    0.000;    0.000
461.339; 8592.850;    0.000;    0.000
461.477; 8611.850;    0.000;    0.000
461.615; 8594.850;    0.000;    0.000
461.753; 8649.850;    0.000;    0.000
461.891; 8660.850;    0.000;    0.000
462.029; 8979.850;    0.000;    0.000
462.166; 8969.850;    0.000;    0.000
462.304; 9064.850;    0.000;    0.000
462.442; 9114.850;    0.000;    0.000
462.580; 9209.850;    0.000;    0.000
462.718; 9157.850;    0.000;    0.000
462.856; 8944.850;    0.000;    0.000
462.993; 9231.850;    0.000;    0.000
463.131; 9088.850;    0.000;    0.000
463.269; 9220.850;    0.000;    0.000
463.407; 9224.850;    0.000;    0.000
463.545; 9221.850;    0.000;    0.000
463.682; 9131.850;    0.000;    0.000
463.820; 9237.850;    0.000;    0.000
463.958; 9459.850;    0.000;    0.000
464.095; 9503.850;    0.000;    0.000
464.233; 9640.850;    0.000;    0.000
464.371; 9623.850;    0.000;    0.000
464.509; 9546.850;    0.000;    0.000
464.646; 9601.850;    0.000;    0.000
464.784; 9599.850;    0.000;    0.000
464.921; 9553.850;    0.000;    0.000
465.059; 9527.850;    0.000;    0.000
465.197; 9318.850;    0.000;    0.000
465.334; 9286.850;    0.000;    0.000
465.472; 9255.850;    0.000;    0.000
465.609; 9338.850;    0.000;    0.000
465.747; 9139.850;    0.000;    0.000
465.885; 9152.850;    0.000;    0.000
466.022; 9216.850;    0.000;    0.000
466.160; 9147.850;    0.000;    0.000
466.297; 9082.850;    0.000;    0.000
466.435; 9173.850;    0.000;    0.000
466.572; 8991.850;    0.000;    0.000
466.710; 9237.850;    0.000;    0.000
466.847; 9175.850;    0.000;    0.000
466.985; 8992.850;    0.000;    0.000
467.122; 9170.850;    0.000;    0.000
467.260; 9079.850;    0.000;    0.000
467.397; 9158.850;    0.000;    0.000
467.534; 9015.850;    0.000;    0.000
467.672; 9019.850;    0.000;    0.000
467.809; 8906.850;    0.000;    0.000
467.947; 8997.850;    0.000;    0.000
468.084; 8960.850;    0.000;    0.000
468.221; 9059.850;    0.000;    0.000
468.359; 9065.850;    0.000;    0.000
468.496; 9254.850;    0.000;    0.000
468.633; 9294.850;    0.000;    0.000
468.771; 9175.850;    0.000;    0.000
468.908; 9149.850;    0.000;    0.000
469.045; 9176.850;    0.000;    0.000
469.183; 9182.850;    0.000;    0.000
469.320; 9296.850;    0.000;    0.000
469.457; 9175.850;    0.000;    0.000
469.594; 9378.850;    0.000;    0.000
469.732; 9381.850;    0.000;    0.000
469.869; 9508.850;    0.000;    0.000
470.006; 9409.850;    0.000;    0.000
470.143; 9473.850;    0.000;    0.000
470.280; 9494.850;    0.000;    0.000
470.417; 9752.850;    0.000;    0.000
470.555; 9599.850;    0.000;    0.000
470.692; 9530.850;    0.000;    0.000
470.829; 9590.850;    0.000;    0.000
470.966; 9544.850;    0.000;    0.000
471.103; 9529.850;    0.000;    0.000
471.240; 9491.850;    0.000;    0.000
471.377; 9494.850;    0.000;    0.000
471.514; 9420.850;    0.000;    0.000
471.651; 9319.850;    0.000;    0.000
471.789; 9472.850;    0.000;    0.000
471.926; 9473.850;    0.000;    0.000
472.063; 9352.850;    0.000;    0.000
472.200; 9447.850;    0.000;    0.000
472.337; 9307.850;    0.000;    0.000
472.474; 9297.850;    0.000;    0.000
472.611; 9402.850;    0.000;    0.000
472.748; 9287.850;    0.000;    0.000
472.884; 9369.850;    0.000;    0.000
473.021; 9457.850;    0.000;    0.000
473.158; 9322.850;    0.000;    0.000
473.295; 9508.850;    0.000;    0.000
473.432; 9391.850;    0.000;    0.000
473.569; 9416.850;    0.000;    0.000
473.706; 9378.850;    0.000;    0.000
473.843; 9356.850;    0.000;    0.000
473.980; 9281.850;    0.000;    0.000
474.117; 9305.850;    0.000;    0.000
474.253; 9295.850;    0.000;    0.000
474.390; 9340.850;    0.000;    0.000
474.527; 9427.850;    0.000;    0.000
474.664; 9394.850;    0.000;    0.000
474.801; 9344.850;    0.000;    0.000
474.937; 9395.850;    0.000;    0.000
475.074; 9397.850;    0.000;    0.000
475.211; 9445.850;    0.000;    0.000
475.348; 9696.850;    0.000;    0.000
475.484; 9479.850;    0.000;    0.000
475.621; 9379.850;    0.000;    0.000
475.758; 9478.850;    0.000;    0.000
475.894; 9430.850;    0.000;    0.000
476.031; 9521.850;    0.000;    0.000
476.168; 9499.850;    0.000;    0.000
476.304; 9739.850;    0.000;    0.000
476.441; 9548.850;    0.000;    0.000
476.578; 9532.850;    0.000;    0.000
476.714; 9556.850;    0.000;    0.000
476.851; 9537.850;    0.000;    0.000
476.987; 9699.850;    0.000;    0.000
477.124; 9773.850;    0.000;    0.000
477.261; 9637.850;    0.000;    0.000
477.397; 9783.850;    0.000;    0.000
477.534; 9720.850;    0.000;    0.000
477.670; 9775.850;    0.000;    0.000
477.807; 9862.850;    0.000;    0.000
477.943; 9894.850;    0.000;    0.000
478.080; 9917.850;    0.000;    0.000
478.216;10095.850;    0.000;    0.000
478.353;10001.850;    0.000;    0.000
478.489; 9960.850;    0.000;    0.000
478.626;10084.850;    0.000;    0.000
478.762;10216.850;    0.000;    0.000
478.898;10403.850;    0.000;    0.000
479.035;10228.850;    0.000;    0.000
479.171;10167.850;    0.000;    0.000
479.308;10031.850;    0.000;    0.000
479.444;10171.850;    0.000;    0.000
479.580;10157.850;    0.000;    0.000
479.717;10225.850;    0.000;    0.000
479.853;10227.850;    0.000;    0.000
479.989;10181.850;    0.000;    0.000
480.126;10239.850;    0.000;    0.000
480.262;10354.850;    0.000;    0.000
480.398;10330.850;    0.000;    0.000
480.535;10327.850;    0.000;    0.000
480.671;10272.850;    0.000;    0.000
480.807;10207.850;    0.000;    0.000
480.943;10188.850;    0.000;    0.000
481.080;10308.850;    0.000;    0.000
481.216;10263.850;    0.000;    0.000
481.352;10049.850;    0.000;    0.000
481.488;10339.850;    0.000;    0.000
481.624;10097.850;    0.000;    0.000
481.760;10247.850;    0.000;    0.000
481.897;10257.850;    0.000;    0.000
482.033;10010.850;    0.000;    0.000
482.169;10205.850;    0.000;    0.000
482.305; 9970.850;    0.000;    0.000
482.441;10145.850;    0.000;    0.000
482.577;10084.850;    0.000;    0.000
482.713;10232.850;    0.000;    0.000
482.849;10014.850;    0.000;    0.000
482.985;10214.850;    0.000;    0.000
483.121;10160.850;    0.000;    0.000
483.258;10131.850;    0.000;    0.000
483.394;10133.850;    0.000;    0.000
483.530;10086.850;    0.000;    0.000
483.665;10168.850;    0.000;    0.000
483.801; 9963.850;    0.000;    0.000
483.937;10333.850;    0.000;    0.000
484.073;10166.850;    0.000;    0.000
484.209;10174.850;    0.000;    0.000
484.345;10327.850;    0.000;    0.000
484.481;10257.850;    0.000;    0.000
484.617;10140.850;    0.000;    0.000
484.753;10292.850;    0.000;    0.000
484.889;10248.850;    0.000;    0.000
485.025;10257.850;    0.000;    0.000
485.161;10188.850;    0.000;    0.000
485.296;10269.850;    0.000;    0.000
485.432;10317.850;    0.000;    0.000
485.568;10215.850;    0.000;    0.000
485.704;10280.850;    0.000;    0.000
485.840;10213.850;    0.000;    0.000
485.975;10400.850;    0.000;    0.000
486.111;10314.850;    0.000;    0.000
486.247;10295.850;    0.000;    0.000
486.383;10385.850;    0.000;    0.000
486.518;10180.850;    0.000;    0.000
486.654;10233.850;    0.000;    0.000
486.790;10388.850;    0.000;    0.000
486.926;10345.850;    0.000;    0.000
487.061;10308.850;    0.000;    0.000
487.197;10387.850;    0.000;    0.000
487.333;10244.850;    0.000;    0.000
487.468;10309.850;    0.000;    0.000
487.604;10368.850;    0.000;    0.000
487.740;10373.850;    0.000;    0.000
487.875;10343.850;    0.000;    0.000
488.011;10343.850;    0.000;    0.000
488.146;10466.850;    0.000;    0.000
488.282;10271.850;    0.000;    0.000
488.417;10218.850;    0.000;    0.000
488.553;10233.850;    0.000;    0.000
488.688;10375.850;    0.000;    0.000
488.824;10326.850;    0.000;    0.000
488.960;10329.850;    0.000;    0.000
489.095;10296.850;    0.000;    0.000
489.230;10416.850;    0.000;    0.000
489.366;10539.850;    0.000;    0.000
489.501;10344.850;    0.000;    0.000
489.637;10468.850;    0.000;    0.000
489.772;10591.850;    0.000;    0.000
489.908;10447.850;    0.000;    0.000
490.043;10471.850;    0.000;    0.000
490.178;10505.850;    0.000;    0.000
490.314;10435.850;    0.000;    0.000
490.449;10303.850;    0.000;    0.000
490.585;10585.850;    0.000;    0.000
490.720;10499.850;    0.000;    0.000
490.855;10676.850;    0.000;    0.000
490.991;10473.850;    0.000;    0.000
491.126;10585.850;    0.000;    0.000
491.261;10422.850;    0.000;    0.000
491.396;10487.850;    0.000;    0.000
491.532;10525.850;    0.000;    0.000
491.667;10570.850;    0.000;    0.000
491.802;10546.850;    0.000;    0.000
491.937;10502.850;    0.000;    0.000
492.073;10781.850;    0.000;    0.000
492.208;10512.850;    0.000;    0.000
492.343;10436.850;    0.000;    0.000
492.478;10626.850;    0.000;    0.000
492.613;10618.850;    0.000;    0.000
492.749;10634.850;    0.000;    0.000
492.884;10489.850;    0.000;    0.000
493.019;10517.850;    0.000;    0.000
493.154;10520.850;    0.000;    0.000
493.289;10570.850;    0.000;    0.000
493.424;10662.850;    0.000;    0.000
493.559;10418.850;    0.000;    0.000
493.694;10550.850;    0.000;    0.000
493.829;10657.850;    0.000;    0.000
493.964;10658.850;    0.000;    0.000
494.099;10620.850;    0.000;    0.000
494.234;10576.850;    0.000;    0.000
494.369;10496.850;    0.000;    0.000
494.504;10414.850;    0.000;    0.000
494.639;10494.850;    0.000;    0.000
494.774;10571.850;    0.000;    0.000
494.909;10573.850;    0.000;    0.000
495.044;10729.850;    0.000;    0.000
495.179;10444.850;    0.000;    0.000
495.314;10608.850;    0.000;    0.000
495.449;10665.850;    0.000;    0.000
495.584;10684.850;    0.000;    0.000
495.719;10808.850;    0.000;    0.000
495.854;10645.850;    0.000;    0.000
495.988;10581.850;    0.000;    0.000
496.123;10700.850;    0.000;    0.000
496.258;10781.850;    0.000;    0.000
496.393;10705.850;    0.000;    0.000
496.528;10896.850;    0.000;    0.000
496.663;10850.850;    0.000;    0.000
496.797;10909.850;    0.000;    0.000
496.932;10974.850;    0.000;    0.000
497.067;10936.850;    0.000;    0.000
497.202;11067.850;    0.000;    0.000
497.336;11076.850;    0.000;    0.000
497.471;11188.850;    0.000;    0.000
497.606;11504.850;    0.000;    0.000
497.740;11513.850;    0.000;    0.000
497.875;11685.850;    0.000;    0.000
498.010;11857.850;    0.000;    0.000
498.144;12017.850;    0.000;    0.000
498.279;12059.850;    0.000;    0.000
498.414;11954.850;    0.000;    0.000
498.548;12098.850;    0.000;    0.000
498.683;12106.850;    0.000;    0.000
498.817;12466.850;    0.000;    0.000
498.952;12367.850;    0.000;    0.000
499.087;12514.850;    0.000;    0.000
499.221;12818.850;    0.000;    0.000
499.356;12950.850;    0.000;    0.000
499.490;13030.850;    0.000;    0.000
499.625;13405.850;    0.000;    0.000
499.759;13446.850;    0.000;    0.000
499.894;13648.850;    0.000;    0.000
500.028;13964.850;    0.000;    0.000
500.162;13984.850;    0.000;    0.000
500.297;13880.850;    0.000;    0.000
500.431;13998.850;    0.000;    0.000
500.566;14117.850;    0.000;    0.000
500.700;13823.850;    0.000;    0.000
500.835;13799.850;    0.000;    0.000
500.969;13611.850;    0.000;    0.000
501.103;13510.850;    0.000;    0.000
501.238;13220.850;    0.000;    0.000
501.372;13041.850;    0.000;    0.000
501.506;12777.850;    0.000;    0.000
501.641;12563.850;    0.000;    0.000
501.775;12378.850;    0.000;    0.000
501.909;12171.850;    0.000;    0.000
502.043;12118.850;    0.000;    0.000
502.178;11950.850;    0.000;    0.000
502.312;11771.850;    0.000;    0.000
502.446;11854.850;    0.000;    0.000
502.580;11669.850;    0.000;    0.000
502.715;11346.850;    0.000;    0.000
502.849;11404.850;    0.000;    0.000
502.983;11115.850;    0.000;    0.000
503.117;11024.850;    0.000;    0.000
503.251;11042.850;    0.000;    0.000
503.385;10900.850;    0.000;    0.000
503.520;10639.850;    0.000;    0.000
503.654;10617.850;    0.000;    0.000
503.788;10459.850;    0.000;    0.000
503.922;10400.850;    0.000;    0.000
504.056;10543.850;    0.000;    0.000
504.190;10445.850;    0.000;    0.000
504.324;10464.850;    0.000;    0.000
504.458;10141.850;    0.000;    0.000
504.592;10157.850;    0.000;    0.000
504.726; 9977.850;    0.000;    0.000
504.860; 9860.850;    0.000;    0.000
504.994; 9827.850;    0.000;    0.000
505.128; 9802.850;    0.000;    0.000
505.262; 9782.850;    0.000;    0.000
505.396; 9578.850;    0.000;    0.000
505.530; 9465.850;    0.000;    0.000
505.664; 9503.850;    0.000;    0.000
505.798; 9304.850;    0.000;    0.000
505.932; 9364.850;    0.000;    0.000
506.066; 9268.850;    0.000;    0.000
506.199; 9096.850;    0.000;    0.000
506.333; 9193.850;    0.000;    0.000
506.467; 9209.850;    0.000;    0.000
506.601; 8937.850;    0.000;    0.000
506.735; 8897.850;    0.000;    0.000
506.869; 8809.850;    0.000;    0.000
507.002; 8848.850;    0.000;    0.000
507.136; 8820.850;    0.000;    0.000
507.270; 8894.850;    0.000;    0.000
507.404; 8720.850;    0.000;    0.000
507.537; 8742.850;    0.000;    0.000
507.671; 8583.850;    0.000;    0.000
507.805; 8691.850;    0.000;    0.000
507.939; 8712.850;    0.000;    0.000
508.072; 8605.850;    0.000;    0.000
508.206; 8528.850;    0.000;    0.000
508.340; 8643.850;    0.000;    0.000
508.473; 8389.850;    0.000;    0.000
508.607; 8375.850;    0.000;    0.000
508.740; 8476.850;    0.000;    0.000
508.874; 8423.850;    0.000;    0.000
509.008; 8393.850;    0.000;    0.000
509.141; 8362.850;    0.000;    0.000
509.275; 8255.850;    0.000;    0.000
509.408; 8251.850;    0.000;    0.000
509.542; 8403.850;    0.000;    0.000
509.675; 8462.850;    0.000;    0.000
509.809; 8330.850;    0.000;    0.000
509.942; 8247.850;    0.000;    0.000
510.076; 8143.850;    0.000;    0.000
510.209; 8253.850;    0.000;    0.000
510.343; 8102.850;    0.000;    0.000
510.476; 8180.850;    0.000;    0.000
510.610; 8167.850;    0.000;    0.000
510.743; 8073.850;    0.000;    0.000
510.877; 8160.850;    0.000;    0.000
511.010; 8112.850;    0.000;    0.000
511.143; 8053.850;    0.000;    0.000
511.277; 8217.850;    0.000;    0.000
511.410; 7974.850;    0.000;    0.000
511.543; 8041.850;    0.000;    0.000
511.677; 7889.850;    0.000;    0.000
511.810; 8052.850;    0.000;    0.000
511.943; 8144.850;    0.000;    0.000
512.077; 8032.850;    0.000;    0.000
512.210; 7942.850;    0.000;    0.000
512.343; 7964.850;    0.000;    0.000
512.476; 7931.850;    0.000;    0.000
512.610; 8019.850;    0.000;    0.000
512.743; 8099.850;    0.000;    0.000
512.876; 8094.850;    0.000;    0.000
513.009; 8043.850;    0.000;    0.000
513.142; 7953.850;    0.000;    0.000
513.276; 7983.850;    0.000;    0.000
513.409; 8109.850;    0.000;    0.000
513.542; 8004.850;    0.000;    0.000
513.675; 7957.850;    0.000;    0.000
513.808; 7990.850;    0.000;    0.000
513.941; 7969.850;    0.000;    0.000
514.074; 8054.850;    0.000;    0.000
514.207; 7983.850;    0.000;    0.000
514.340; 8036.850;    0.000;    0.000
514.474; 7918.850;    0.000;    0.000
514.607; 8158.850;    0.000;    0.000
514.740; 8140.850;    0.000;    0.000
514.873; 8119.850;    0.000;    0.000
515.006; 8275.850;    0.000;    0.000
515.139; 8156.850;    0.000;    0.000
515.272; 8374.850;    0.000;    0.000
515.404; 8433.850;    0.000;    0.000
515.537; 8423.850;    0.000;    0.000
515.670; 8397.850;    0.000;    0.000
515.803; 8607.850;    0.000;    0.000
515.936; 8454.850;    0.000;    0.000
516.069; 8500.850;    0.000;    0.000
516.202; 8747.850;    0.000;    0.000
516.335; 8840.850;    0.000;    0.000
516.468; 9347.850;    0.000;    0.000
516.600;11140.850;    0.000;    0.000
516.733;13897.850;    0.000;    0.000
516.866;14239.850;    0.000;    0.000
516.999;13065.850;    0.000;    0.000
517.132;15503.850;    0.000;    0.000
517.264;21219.850;    0.000;    0.000
517.397;21550.850;    0.000;    0.000
517.530;16699.850;    0.000;    0.000
517.663;14050.850;    0.000;    0.000
517.795;12927.850;    0.000;    0.000
517.928;12231.850;    0.000;    0.000
518.061;12470.850;    0.000;    0.000
518.193;16203.850;    0.000;    0.000
518.326;24520.850;    0.000;    0.000
518.459;26953.850;    0.000;    0.000
518.591;21493.850;    0.000;    0.000
518.724;16392.850;    0.000;    0.000
518.857;14143.850;    0.000;    0.000
518.989;12647.850;    0.000;    0.000
519.122;11670.850;    0.000;    0.000
519.254;10992.850;    0.000;    0.000
519.387;10385.850;    0.000;    0.000
519.519; 9997.850;    0.000;    0.000
519.652; 9603.850;    0.000;    0.000
519.784; 9458.850;    0.000;    0.000
519.917; 9075.850;    0.000;    0.000
520.049; 8908.850;    0.000;    0.000
520.182; 8954.850;    0.000;    0.000
520.314; 8621.850;    0.000;    0.000
520.447; 8574.850;    0.000;    0.000
520.579; 8463.850;    0.000;    0.000
520.712; 8291.850;    0.000;    0.000
520.844; 8374.850;    0.000;    0.000
520.976; 8262.850;    0.000;    0.000
521.109; 8250.850;    0.000;    0.000
521.241; 7985.850;    0.000;    0.000
521.373; 7925.850;    0.000;    0.000
521.506; 7796.850;    0.000;    0.000
521.638; 7870.850;    0.000;    0.000
521.770; 7812.850;    0.000;    0.000
521.903; 7872.850;    0.000;    0.000
522.035; 7772.850;    0.000;    0.000
522.167; 7517.850;    0.000;    0.000
522.300; 7672.850;    0.000;    0.000
522.432; 7493.850;    0.000;    0.000
522.564; 7529.850;    0.000;    0.000
522.696; 7529.850;    0.000;    0.000
522.828; 7376.850;    0.000;    0.000
522.961; 7469.850;    0.000;    0.000
523.093; 7322.850;    0.000;    0.000
523.225; 7464.850;    0.000;    0.000
523.357; 7392.850;    0.000;    0.000
523.489; 7267.850;    0.000;    0.000
523.621; 7268.850;    0.000;    0.000
523.753; 7170.850;    0.000;    0.000
523.885; 7231.850;    0.000;    0.000
524.018; 7071.850;    0.000;    0.000
524.150; 7169.850;    0.000;    0.000
524.282; 7105.850;    0.000;    0.000
524.414; 7368.850;    0.000;    0.000
524.546; 7149.850;    0.000;    0.000
524.678; 7115.850;    0.000;    0.000
524.810; 7082.850;    0.000;    0.000
524.942; 7000.850;    0.000;    0.000
525.074; 6899.850;    0.000;    0.000
525.206; 6946.850;    0.000;    0.000
525.338; 6991.850;    0.000;    0.000
525.469; 6770.850;    0.000;    0.000
525.601; 6923.850;    0.000;    0.000
525.733; 6815.850;    0.000;    0.000
525.865; 6906.850;    0.000;    0.000
525.997; 6845.850;    0.000;    0.000
526.129; 6902.850;    0.000;    0.000
526.261; 6811.850;    0.000;    0.000
526.393; 6791.850;    0.000;    0.000
526.524; 6818.850;    0.000;    0.000
526.656; 6668.850;    0.000;    0.000
526.788; 6682.850;    0.000;    0.000
526.920; 6685.850;    0.000;    0.000
527.052; 6669.850;    0.000;    0.000
527.183; 6664.850;    0.000;    0.000
527.315; 6577.850;    0.000;    0.000
527.447; 6658.850;    0.000;    0.000
527.578; 6676.850;    0.000;    0.000
527.710; 6804.850;    0.000;    0.000
527.842; 6579.850;    0.000;    0.000
527.973; 6622.850;    0.000;    0.000
528.105; 6502.850;    0.000;    0.000
528.237; 6701.850;    0.000;    0.000
528.368; 6515.850;    0.000;    0.000
528.500; 6687.850;    0.000;    0.000
528.632; 6542.850;    0.000;    0.000
528.763; 6470.850;    0.000;    0.000
528.895; 6376.850;    0.000;    0.000
529.026; 6595.850;    0.000;    0.000
529.158; 6487.850;    0.000;    0.000
529.289; 6476.850;    0.000;    0.000
529.421; 6550.850;    0.000;    0.000
529.552; 6505.850;    0.000;    0.000
529.684; 6599.850;    0.000;    0.000
529.815; 6677.850;    0.000;    0.000
529.947; 6507.850;    0.000;    0.000
530.078; 6436.850;    0.000;    0.000
530.210; 6498.850;    0.000;    0.000
530.341; 6441.850;    0.000;    0.000
530.472; 6454.850;    0.000;    0.000
530.604; 6463.850;    0.000;    0.000
530.735; 6559.850;    0.000;    0.000
530.867; 6568.850;    0.000;    0.000
530.998; 6604.850;    0.000;    0.000
531.129; 6476.850;    0.000;    0.000
531.260; 6563.850;    0.000;    0.000
531.392; 6511.850;    0.000;    0.000
531.523; 6489.850;    0.000;    0.000
531.654; 6543.850;    0.000;    0.000
531.786; 6629.850;    0.000;    0.000
531.917; 6659.850;    0.000;    0.000
532.048; 6523.850;    0.000;    0.000
532.179; 6598.850;    0.000;    0.000
532.311; 6487.850;    0.000;    0.000
532.442; 6528.850;    0.000;    0.000
532.573; 6445.850;    0.000;    0.000
532.704; 6437.850;    0.000;    0.000
532.835; 6484.850;    0.000;    0.000
532.966; 6481.850;    0.000;    0.000
533.097; 6545.850;    0.000;    0.000
533.229; 6548.850;    0.000;    0.000
533.360; 6516.850;    0.000;    0.000
533.491; 6395.850;    0.000;    0.000
533.622; 6368.850;    0.000;    0.000
533.753; 6376.850;    0.000;    0.000
533.884; 6329.850;    0.000;    0.000
534.015; 6229.850;    0.000;    0.000
534.146; 6493.850;    0.000;    0.000
534.277; 6533.850;    0.000;    0.000
534.408; 6535.850;    0.000;    0.000
534.539; 6498.850;    0.000;    0.000
534.670; 6468.850;    0.000;    0.000
534.801; 6440.850;    0.000;    0.000
534.932; 6266.850;    0.000;    0.000
535.063; 6337.850;    0.000;    0.000
535.194; 6358.850;    0.000;    0.000
535.324; 6309.850;    0.000;    0.000
535.455; 6353.850;    0.000;    0.000
535.586; 6388.850;    0.000;    0.000
535.717; 6238.850;    0.000;    0.000
535.848; 6478.850;    0.000;    0.000
535.979; 6346.850;    0.000;    0.000
536.109; 6270.850;    0.000;    0.000
536.240; 6227.850;    0.000;    0.000
536.371; 6292.850;    0.000;    0.000
536.502; 6278.850;    0.000;    0.000
536.632; 6322.850;    0.000;    0.000
536.763; 6192.850;    0.000;    0.000
536.894; 6367.850;    0.000;    0.000
537.025; 6263.850;    0.000;    0.000
537.155; 6214.850;    0.000;    0.000
537.286; 6204.850;    0.000;    0.000
537.417; 6293.850;    0.000;    0.000
537.547; 6287.850;    0.000;    0.000
537.678; 6201.850;    0.000;    0.000
537.808; 6258.850;    0.000;    0.000
537.939; 6247.850;    0.000;    0.000
538.070; 6168.850;    0.000;    0.000
538.200; 6249.850;    0.000;    0.000
538.331; 6230.850;    0.000;    0.000
538.461; 6176.850;    0.000;    0.000
538.592; 6241.850;    0.000;    0.000
538.722; 6273.850;    0.000;    0.000
538.853; 6336.850;    0.000;    0.000
538.983; 6374.850;    0.000;    0.000
539.114; 6219.850;    0.000;    0.000
539.244; 6136.850;    0.000;    0.000
539.375; 6238.850;    0.000;    0.000
539.505; 6171.850;    0.000;    0.000
539.636; 6214.850;    0.000;    0.000
539.766; 6179.850;    0.000;    0.000
539.896; 6187.850;    0.000;    0.000
540.027; 6256.850;    0.000;    0.000
540.157; 6149.850;    0.000;    0.000
540.287; 6296.850;    0.000;    0.000
540.418; 6307.850;    0.000;    0.000
540.548; 6163.850;    0.000;    0.000
540.678; 6253.850;    0.000;    0.000
540.809; 6278.850;    0.000;    0.000
540.939; 6179.850;    0.000;    0.000
541.069; 6393.850;    0.000;    0.000
541.200; 6291.850;    0.000;    0.000
541.330; 6214.850;    0.000;    0.000
541.460; 6310.850;    0.000;    0.000
541.590; 6237.850;    0.000;    0.000
541.720; 6206.850;    0.000;    0.000
541.851; 6437.850;    0.000;    0.000
541.981; 6416.850;    0.000;    0.000
542.111; 6458.850;    0.000;    0.000
542.241; 6382.850;    0.000;    0.000
542.371; 6470.850;    0.000;    0.000
542.501; 6500.850;    0.000;    0.000
542.631; 6463.850;    0.000;    0.000
542.761; 6554.850;    0.000;    0.000
542.891; 6664.850;    0.000;    0.000
543.021; 6552.850;    0.000;    0.000
543.151; 6637.850;    0.000;    0.000
543.281; 6525.850;    0.000;    0.000
543.411; 6404.850;    0.000;    0.000
543.542; 6467.850;    0.000;    0.000
543.671; 6539.850;    0.000;    0.000
543.801; 6398.850;    0.000;    0.000
543.931; 6450.850;    0.000;    0.000
544.061; 6315.850;    0.000;    0.000
544.191; 6523.850;    0.000;    0.000
544.321; 6509.850;    0.000;    0.000
544.451; 6424.850;    0.000;    0.000
544.581; 6482.850;    0.000;    0.000
544.711; 6661.850;    0.000;    0.000
544.841; 6519.850;    0.000;    0.000
544.970; 6522.850;    0.000;    0.000
545.100; 6637.850;    0.000;    0.000
545.230; 6516.850;    0.000;    0.000
545.360; 6540.850;    0.000;    0.000
545.490; 6555.850;    0.000;    0.000
545.619; 6466.850;    0.000;    0.000
545.749; 6474.850;    0.000;    0.000
545.879; 6437.850;    0.000;    0.000
546.009; 6417.850;    0.000;    0.000
546.138; 6359.850;    0.000;    0.000
546.268; 6458.850;    0.000;    0.000
546.398; 6400.850;    0.000;    0.000
546.527; 6352.850;    0.000;    0.000
546.657; 6428.850;    0.000;    0.000
546.786; 6495.850;    0.000;    0.000
546.916; 6654.850;    0.000;    0.000
547.046; 6431.850;    0.000;    0.000
547.175; 6373.850;    0.000;    0.000
547.305; 6397.850;    0.000;    0.000
547.434; 6367.850;    0.000;    0.000
547.564; 6446.850;    0.000;    0.000
547.693; 6477.850;    0.000;    0.000
547.823; 6354.850;    0.000;    0.000
547.953; 6362.850;    0.000;    0.000
548.082; 6557.850;    0.000;    0.000
548.211; 6376.850;    0.000;    0.000
548.341; 6356.850;    0.000;    0.000
548.470; 6384.850;    0.000;    0.000
548.600; 6424.850;    0.000;    0.000
548.729; 6276.850;    0.000;    0.000
548.859; 6449.850;    0.000;    0.000
548.988; 6447.850;    0.000;    0.000
549.117; 6333.850;    0.000;    0.000
549.247; 6603.850;    0.000;    0.000
549.376; 6461.850;    0.000;    0.000
549.505; 6564.850;    0.000;    0.000
549.635; 6553.850;    0.000;    0.000
549.764; 6392.850;    0.000;    0.000
549.893; 6461.850;    0.000;    0.000
550.023; 6472.850;    0.000;    0.000
550.152; 6453.850;    0.000;    0.000
550.281; 6518.850;    0.000;    0.000
550.410; 6589.850;    0.000;    0.000
550.539; 6554.850;    0.000;    0.000
550.669; 6595.850;    0.000;    0.000
550.798; 6466.850;    0.000;    0.000
550.927; 6610.850;    0.000;    0.000
551.056; 6500.850;    0.000;    0.000
551.185; 6572.850;    0.000;    0.000
551.314; 6575.850;    0.000;    0.000
551.443; 6578.850;    0.000;    0.000
551.573; 6646.850;    0.000;    0.000
551.702; 6475.850;    0.000;    0.000
551.831; 6573.850;    0.000;    0.000
551.960; 6647.850;    0.000;    0.000
552.089; 6632.850;    0.000;    0.000
552.218; 6648.850;    0.000;    0.000
552.347; 6787.850;    0.000;    0.000
552.476; 6740.850;    0.000;    0.000
552.605; 6731.850;    0.000;    0.000
552.734; 6843.850;    0.000;    0.000
552.863; 7071.850;    0.000;    0.000
552.992; 7099.850;    0.000;    0.000
553.121; 7045.850;    0.000;    0.000
553.249; 7083.850;    0.000;    0.000
553.378; 6973.850;    0.000;    0.000
553.507; 6843.850;    0.000;    0.000
553.636; 6901.850;    0.000;    0.000
553.765; 6850.850;    0.000;    0.000
553.894; 6837.850;    0.000;    0.000
554.023; 6804.850;    0.000;    0.000
554.151; 6779.850;    0.000;    0.000
554.280; 6756.850;    0.000;    0.000
554.409; 6604.850;    0.000;    0.000
554.538; 6786.850;    0.000;    0.000
554.666; 6733.850;    0.000;    0.000
554.795; 6675.850;    0.000;    0.000
554.924; 6653.850;    0.000;    0.000
555.052; 6719.850;    0.000;    0.000
555.181; 6638.850;    0.000;    0.000
555.310; 6626.850;    0.000;    0.000
555.439; 6661.850;    0.000;    0.000
555.567; 6506.850;    0.000;    0.000
555.696; 6545.850;    0.000;    0.000
555.824; 6530.850;    0.000;    0.000
555.953; 6648.850;    0.000;    0.000
556.082; 6546.850;    0.000;    0.000
556.210; 6464.850;    0.000;    0.000
556.339; 6524.850;    0.000;    0.000
556.467; 6524.850;    0.000;    0.000
556.596; 6537.850;    0.000;    0.000
556.724; 6504.850;    0.000;    0.000
556.853; 6435.850;    0.000;    0.000
556.981; 6471.850;    0.000;    0.000
557.110; 6463.850;    0.000;    0.000
557.238; 6482.850;    0.000;    0.000
557.367; 6347.850;    0.000;    0.000
557.495; 6447.850;    0.000;    0.000
557.623; 6357.850;    0.000;    0.000
557.752; 6297.850;    0.000;    0.000
557.880; 6496.850;    0.000;    0.000
558.008; 6555.850;    0.000;    0.000
558.137; 6593.850;    0.000;    0.000
558.265; 6632.850;    0.000;    0.000
558.393; 6586.850;    0.000;    0.000
558.522; 6549.850;    0.000;    0.000
558.650; 6569.850;    0.000;    0.000
558.778; 6436.850;    0.000;    0.000
558.906; 6561.850;    0.000;    0.000
559.035; 6544.850;    0.000;    0.000
559.163; 6466.850;    0.000;    0.000
559.291; 6484.850;    0.000;    0.000
559.419; 6623.850;    0.000;    0.000
559.548; 6538.850;    0.000;    0.000
559.676; 6577.850;    0.000;    0.000
559.804; 6704.850;    0.000;    0.000
559.932; 6581.850;    0.000;    0.000
560.060; 6699.850;    0.000;    0.000
560.188; 6610.850;    0.000;    0.000
560.316; 6790.850;    0.000;    0.000
560.444; 6657.850;    0.000;    0.000
560.572; 6832.850;    0.000;    0.000
560.700; 6857.850;    0.000;    0.000
560.828; 6660.850;    0.000;    0.000
560.956; 6742.850;    0.000;    0.000
561.085; 6714.850;    0.000;    0.000
561.212; 6803.850;    0.000;    0.000
561.340; 6798.850;    0.000;    0.000
561.468; 6839.850;    0.000;    0.000
561.596; 6924.850;    0.000;    0.000
561.724; 6826.850;    0.000;    0.000
561.852; 6787.850;    0.000;    0.000
561.980; 6936.850;    0.000;    0.000
562.108; 6963.850;    0.000;    0.000
562.236; 6797.850;    0.000;    0.000
562.364; 6854.850;    0.000;    0.000
562.492; 6943.850;    0.000;    0.000
562.619; 7009.850;    0.000;    0.000
562.747; 6985.850;    0.000;    0.000
562.875; 7020.850;    0.000;    0.000
563.003; 7084.850;    0.000;    0.000
563.130; 7225.850;    0.000;    0.000
563.258; 7000.850;    0.000;    0.000
563.386; 7252.850;    0.000;    0.000
563.514; 7241.850;    0.000;    0.000
563.641; 7355.850;    0.000;    0.000
563.769; 7268.850;    0.000;    0.000
563.897; 7333.850;    0.000;    0.000
564.024; 7317.850;    0.000;    0.000
564.152; 7534.850;    0.000;    0.000
564.280; 7435.850;    0.000;    0.000
564.407; 7573.850;    0.000;    0.000
564.535; 7542.850;    0.000;    0.000
564.662; 7566.850;    0.000;    0.000
564.790; 7726.850;    0.000;    0.000
564.917; 7795.850;    0.000;    0.000
565.045; 7776.850;    0.000;    0.000
565.173; 7628.850;    0.000;    0.000
565.300; 7886.850;    0.000;    0.000
565.428; 7854.850;    0.000;    0.000
565.555; 7945.850;    0.000;    0.000
565.682; 7977.850;    0.000;    0.000
565.810; 8279.850;    0.000;    0.000
565.937; 8258.850;    0.000;    0.000
566.065; 8378.850;    0.000;    0.000
566.192; 8334.850;    0.000;    0.000
566.320; 8406.850;    0.000;    0.000
566.447; 8665.850;    0.000;    0.000
566.574; 8546.850;    0.000;    0.000
566.702; 8654.850;    0.000;    0.000
566.829; 8728.850;    0.000;    0.000
566.956; 8800.850;    0.000;    0.000
567.083; 8856.850;    0.000;    0.000
567.211; 9018.850;    0.000;    0.000
567.338; 8858.850;    0.000;    0.000
567.465; 8943.850;    0.000;    0.000
567.593; 8989.850;    0.000;    0.000
567.720; 8947.850;    0.000;    0.000
567.847; 8796.850;    0.000;    0.000
567.974; 8912.850;    0.000;    0.000
568.101; 9251.850;    0.000;    0.000
568.228; 9624.850;    0.000;    0.000
568.356; 9955.850;    0.000;    0.000
568.483;10021.850;    0.000;    0.000
568.610; 9843.850;    0.000;    0.000
568.737;10405.850;    0.000;    0.000
568.864;11181.850;    0.000;    0.000
568.991;11067.850;    0.000;    0.000
569.118;10306.850;    0.000;    0.000
569.245; 9853.850;    0.000;    0.000
569.372; 9574.850;    0.000;    0.000
569.499; 9170.850;    0.000;    0.000
569.626; 9203.850;    0.000;    0.000
569.753; 9052.850;    0.000;    0.000
569.880; 8780.850;    0.000;    0.000
570.007; 8564.850;    0.000;    0.000
570.134; 8536.850;    0.000;    0.000
570.261; 8493.850;    0.000;    0.000
570.388; 8277.850;    0.000;    0.000
570.515; 8295.850;    0.000;    0.000
570.642; 8241.850;    0.000;    0.000
570.768; 8215.850;    0.000;    0.000
570.895; 8130.850;    0.000;    0.000
571.022; 8082.850;    0.000;    0.000
571.149; 8013.850;    0.000;    0.000
571.276; 7916.850;    0.000;    0.000
571.402; 7861.850;    0.000;    0.000
571.529; 7792.850;    0.000;    0.000
571.656; 7722.850;    0.000;    0.000
571.783; 7886.850;    0.000;    0.000
571.909; 7773.850;    0.000;    0.000
572.036; 7578.850;    0.000;    0.000
572.163; 7675.850;    0.000;    0.000
572.289; 7598.850;    0.000;    0.000
572.416; 7536.850;    0.000;    0.000
572.543; 7680.850;    0.000;    0.000
572.669; 7476.850;    0.000;    0.000
572.796; 7521.850;    0.000;    0.000
572.922; 7542.850;    0.000;    0.000
573.049; 7447.850;    0.000;    0.000
573.176; 7535.850;    0.000;    0.000
573.302; 7609.850;    0.000;    0.000
573.429; 7394.850;    0.000;    0.000
573.555; 7412.850;    0.000;    0.000
573.682; 7411.850;    0.000;    0.000
573.808; 7421.850;    0.000;    0.000
573.935; 7360.850;    0.000;    0.000
574.061; 7424.850;    0.000;    0.000
574.188; 7345.850;    0.000;    0.000
574.314; 7351.850;    0.000;    0.000
574.440; 7376.850;    0.000;    0.000
574.567; 7357.850;    0.000;    0.000
574.693; 7251.850;    0.000;    0.000
574.820; 7294.850;    0.000;    0.000
574.946; 7455.850;    0.000;    0.000
575.072; 7309.850;    0.000;    0.000
575.198; 7352.850;    0.000;    0.000
575.325; 7205.850;    0.000;    0.000
575.451; 7352.850;    0.000;    0.000
575.577; 7315.850;    0.000;    0.000
575.704; 7376.850;    0.000;    0.000
575.830; 7337.850;    0.000;    0.000
575.956; 7320.850;    0.000;    0.000
576.082; 7461.850;    0.000;    0.000
576.208; 7275.850;    0.000;    0.000
576.335; 7181.850;    0.000;    0.000
576.461; 7224.850;    0.000;    0.000
576.587; 7177.850;    0.000;    0.000
576.713; 7102.850;    0.000;    0.000
576.839; 7181.850;    0.000;    0.000
576.965; 7098.850;    0.000;    0.000
577.091; 7173.850;    0.000;    0.000
577.217; 7254.850;    0.000;    0.000
577.343; 7290.850;    0.000;    0.000
577.469; 7302.850;    0.000;    0.000
577.596; 7204.850;    0.000;    0.000
577.722; 7156.850;    0.000;    0.000
577.848; 7276.850;    0.000;    0.000
577.974; 7116.850;    0.000;    0.000
578.099; 7032.850;    0.000;    0.000
578.225; 7231.850;    0.000;    0.000
578.351; 7189.850;    0.000;    0.000
578.477; 7159.850;    0.000;    0.000
578.603; 7279.850;    0.000;    0.000
578.729; 7345.850;    0.000;    0.000
578.855; 7195.850;    0.000;    0.000
578.981; 7332.850;    0.000;    0.000
579.107; 7327.850;    0.000;    0.000
579.232; 7259.850;    0.000;    0.000
579.358; 7216.850;    0.000;    0.000
579.484; 7285.850;    0.000;    0.000
579.610; 7451.850;    0.000;    0.000
579.735; 7329.850;    0.000;    0.000
579.861; 7369.850;    0.000;    0.000
579.987; 7505.850;    0.000;    0.000
580.113; 7486.850;    0.000;    0.000
580.238; 7357.850;    0.000;    0.000
580.364; 7428.850;    0.000;    0.000
580.490; 7456.850;    0.000;    0.000
580.615; 7584.850;    0.000;    0.000
580.741; 7478.850;    0.000;    0.000
580.867; 7514.850;    0.000;    0.000
580.992; 7605.850;    0.000;    0.000
581.118; 7679.850;    0.000;    0.000
581.243; 7481.850;    0.000;    0.000
581.369; 7570.850;    0.000;    0.000
581.494; 7574.850;    0.000;    0.000
581.620; 7642.850;    0.000;    0.000
581.745; 7649.850;    0.000;    0.000
581.871; 7664.850;    0.000;    0.000
581.996; 7710.850;    0.000;    0.000
582.122; 7862.850;    0.000;    0.000
582.247; 7804.850;    0.000;    0.000
582.373; 7878.850;    0.000;    0.000
582.498; 7959.850;    0.000;    0.000
582.624; 7862.850;    0.000;    0.000
582.749; 8148.850;    0.000;    0.000
582.874; 8109.850;    0.000;    0.000
583.000; 8122.850;    0.000;    0.000
583.125; 8083.850;    0.000;    0.000
583.250; 8232.850;    0.000;    0.000
583.376; 8363.850;    0.000;    0.000
583.501; 8280.850;    0.000;    0.000
583.626; 8340.850;    0.000;    0.000
583.751; 8439.850;    0.000;    0.000
583.877; 8599.850;    0.000;    0.000
584.002; 8685.850;    0.000;    0.000
584.127; 8805.850;    0.000;    0.000
584.252; 8787.850;    0.000;    0.000
584.377; 8841.850;    0.000;    0.000
584.503; 8953.850;    0.000;    0.000
584.628; 9176.850;    0.000;    0.000
584.753; 9290.850;    0.000;    0.000
584.878; 9361.850;    0.000;    0.000
585.003; 9402.850;    0.000;    0.000
585.128; 9898.850;    0.000;    0.000
585.253;10463.850;    0.000;    0.000
585.378;10224.850;    0.000;    0.000
585.503;10020.850;    0.000;    0.000
585.628;10004.850;    0.000;    0.000
585.753;10294.850;    0.000;    0.000
585.878;10613.850;    0.000;    0.000
586.003;10703.850;    0.000;    0.000
586.128;10987.850;    0.000;    0.000
586.253;11341.850;    0.000;    0.000
586.378;11298.850;    0.000;    0.000
586.503;11738.850;    0.000;    0.000
586.628;12013.850;    0.000;    0.000
586.753;12251.850;    0.000;    0.000
586.878;12904.850;    0.000;    0.000
587.003;13498.850;    0.000;    0.000
587.127;14058.850;    0.000;    0.000
587.252;14442.850;    0.000;    0.000
587.377;15197.850;    0.000;    0.000
587.502;16117.850;    0.000;    0.000
587.627;17186.850;    0.000;    0.000
587.751;18100.850;    0.000;    0.000
587.876;19566.850;    0.000;    0.000
588.001;21216.850;    0.000;    0.000
588.125;22952.850;    0.000;    0.000
588.250;25368.850;    0.000;    0.000
588.375;28661.850;    0.000;    0.000
588.499;32872.852;    0.000;    0.000
588.624;38655.852;    0.000;    0.000
588.749;46349.852;    0.000;    0.000
588.873;52903.852;    0.000;    0.000
588.998;56514.852;    0.000;    0.000
589.122;59979.852;    0.000;    0.000
589.247;59659.852;    0.000;    0.000
589.372;55566.852;    0.000;    0.000
589.496;54747.852;    0.000;    0.000
589.621;56580.852;    0.000;    0.000
589.745;56069.852;    0.000;    0.000
589.870;49907.852;    0.000;    0.000
589.994;41344.852;    0.000;    0.000
590.118;35745.852;    0.000;    0.000
590.243;31261.850;    0.000;    0.000
590.367;27854.850;    0.000;    0.000
590.492;25295.850;    0.000;    0.000
590.616;23209.850;    0.000;    0.000
590.740;21752.850;    0.000;    0.000
590.865;20138.850;    0.000;    0.000
590.989;18760.850;    0.000;    0.000
591.114;17663.850;    0.000;    0.000
591.238;16866.850;    0.000;    0.000
591.362;16201.850;    0.000;    0.000
591.486;15574.850;    0.000;    0.000
591.611;15069.850;    0.000;    0.000
591.735;14443.850;    0.000;    0.000
591.859;13956.850;    0.000;    0.000
591.983;13538.850;    0.000;    0.000
592.107;12962.850;    0.000;    0.000
592.232;12794.850;    0.000;    0.000
592.356;12505.850;    0.000;    0.000
592.480;12369.850;    0.000;    0.000
592.604;11890.850;    0.000;    0.000
592.728;11602.850;    0.000;    0.000
592.852;11378.850;    0.000;    0.000
592.976;11268.850;    0.000;    0.000
593.100;11040.850;    0.000;    0.000
593.224;11200.850;    0.000;    0.000
593.349;10942.850;    0.000;    0.000
593.473;10556.850;    0.000;    0.000
593.597;10435.850;    0.000;    0.000
593.721;10319.850;    0.000;    0.000
593.844;10125.850;    0.000;    0.000
593.968;10154.850;    0.000;    0.000
594.092;10015.850;    0.000;    0.000
594.216; 9719.850;    0.000;    0.000
594.340; 9821.850;    0.000;    0.000
594.464; 9664.850;    0.000;    0.000
594.588; 9716.850;    0.000;    0.000
594.712; 9437.850;    0.000;    0.000
594.836; 9167.850;    0.000;    0.000
594.959; 9188.850;    0.000;    0.000
595.083; 9129.850;    0.000;    0.000
595.207; 9053.850;    0.000;    0.000
595.331; 8802.850;    0.000;    0.000
595.455; 8757.850;    0.000;    0.000
595.578; 8749.850;    0.000;    0.000
595.702; 8644.850;    0.000;    0.000
595.826; 8608.850;    0.000;    0.000
595.949; 8388.850;    0.000;    0.000
596.073; 8520.850;    0.000;    0.000
596.197; 8254.850;    0.000;    0.000
596.320; 8393.850;    0.000;    0.000
596.444; 8375.850;    0.000;    0.000
596.568; 8251.850;    0.000;    0.000
596.691; 8179.850;    0.000;    0.000
596.815; 8026.850;    0.000;    0.000
596.938; 8040.850;    0.000;    0.000
597.062; 7821.850;    0.000;    0.000
597.186; 7833.850;    0.000;    0.000
597.309; 7849.850;    0.000;    0.000
597.433; 7974.850;    0.000;    0.000
597.556; 7793.850;    0.000;    0.000
597.680; 7674.850;    0.000;    0.000
597.803; 7782.850;    0.000;    0.000
597.926; 7708.850;    0.000;    0.000
598.050; 7656.850;    0.000;    0.000
598.173; 7638.850;    0.000;    0.000
598.297; 7594.850;    0.000;    0.000
598.420; 7576.850;    0.000;    0.000
598.543; 7583.850;    0.000;    0.000
598.667; 7519.850;    0.000;    0.000
598.790; 7394.850;    0.000;    0.000
598.913; 7512.850;    0.000;    0.000
599.037; 7327.850;    0.000;    0.000
599.160; 7233.850;    0.000;    0.000
599.283; 7331.850;    0.000;    0.000
599.406; 7196.850;    0.000;    0.000
599.530; 7183.850;    0.000;    0.000
599.653; 7277.850;    0.000;    0.000
599.776; 7228.850;    0.000;    0.000
599.899; 7245.850;    0.000;    0.000
600.022; 7219.850;    0.000;    0.000
600.145; 7157.850;    0.000;    0.000
600.269; 7326.850;    0.000;    0.000
600.392; 7129.850;    0.000;    0.000
600.515; 7194.850;    0.000;    0.000
600.638; 7111.850;    0.000;    0.000
600.761; 7252.850;    0.000;    0.000
600.884; 7066.850;    0.000;    0.000
601.007; 7076.850;    0.000;    0.000
601.130; 7082.850;    0.000;    0.000
601.253; 7067.850;    0.000;    0.000
601.376; 7099.850;    0.000;    0.000
601.499; 6868.850;    0.000;    0.000
601.622; 6969.850;    0.000;    0.000
601.745; 6758.850;    0.000;    0.000
601.868; 7013.850;    0.000;    0.000
601.991; 6985.850;    0.000;    0.000
602.113; 6905.850;    0.000;    0.000
602.236; 6824.850;    0.000;    0.000
602.359; 6684.850;    0.000;    0.000
602.482; 6658.850;    0.000;    0.000
602.605; 6904.850;    0.000;    0.000
602.728; 6836.850;    0.000;    0.000
602.850; 6763.850;    0.000;    0.000
602.973; 6729.850;    0.000;    0.000
603.096; 6772.850;    0.000;    0.000
603.219; 6637.850;    0.000;    0.000
603.341; 6667.850;    0.000;    0.000
603.464; 6675.850;    0.000;    0.000
603.587; 6542.850;    0.000;    0.000
603.709; 6509.850;    0.000;    0.000
603.832; 6800.850;    0.000;    0.000
603.955; 6531.850;    0.000;    0.000
604.077; 6609.850;    0.000;    0.000
604.200; 6584.850;    0.000;    0.000
604.323; 6584.850;    0.000;    0.000
604.445; 6575.850;    0.000;    0.000
604.568; 6563.850;    0.000;    0.000
604.690; 6446.850;    0.000;    0.000
604.813; 6617.850;    0.000;    0.000
604.935; 6611.850;    0.000;    0.000
605.058; 6447.850;    0.000;    0.000
605.180; 6365.850;    0.000;    0.000
605.303; 6558.850;    0.000;    0.000
605.425; 6466.850;    0.000;    0.000
605.547; 6479.850;    0.000;    0.000
605.670; 6491.850;    0.000;    0.000
605.792; 6430.850;    0.000;    0.000
605.915; 6452.850;    0.000;    0.000
606.037; 6360.850;    0.000;    0.000
606.159; 6561.850;    0.000;    0.000
606.282; 6337.850;    0.000;    0.000
606.404; 6408.850;    0.000;    0.000
606.526; 6397.850;    0.000;    0.000
606.648; 6467.850;    0.000;    0.000
606.771; 6418.850;    0.000;    0.000
606.893; 6318.850;    0.000;    0.000
607.015; 6365.850;    0.000;    0.000
607.137; 6324.850;    0.000;    0.000
607.260; 6281.850;    0.000;    0.000
607.382; 6296.850;    0.000;    0.000
607.504; 6292.850;    0.000;    0.000
607.626; 6314.850;    0.000;    0.000
607.748; 6375.850;    0.000;    0.000
607.870; 6358.850;    0.000;    0.000
607.992; 6267.850;    0.000;    0.000
608.114; 6375.850;    0.000;    0.000
608.237; 6328.850;    0.000;    0.000
608.359; 6291.850;    0.000;    0.000
608.481; 6238.850;    0.000;    0.000
608.603; 6289.850;    0.000;    0.000
608.725; 6329.850;    0.000;    0.000
608.847; 6309.850;    0.000;    0.000
608.969; 6323.850;    0.000;    0.000
609.090; 6386.850;    0.000;    0.000
609.212; 6238.850;    0.000;    0.000
609.334; 6292.850;    0.000;    0.000
609.456; 6428.850;    0.000;    0.000
609.578; 6277.850;    0.000;    0.000
609.700; 6188.850;    0.000;    0.000
609.822; 6216.850;    0.000;    0.000
609.944; 6233.850;    0.000;    0.000
610.065; 6207.850;    0.000;    0.000
610.187; 6246.850;    0.000;    0.000
610.309; 6401.850;    0.000;    0.000
610.431; 6221.850;    0.000;    0.000
610.552; 6216.850;    0.000;    0.000
610.674; 6299.850;    0.000;    0.000
610.796; 6198.850;    0.000;    0.000
610.918; 6076.850;    0.000;    0.000
611.039; 6230.850;    0.000;    0.000
611.161; 6087.850;    0.000;    0.000
611.282; 6183.850;    0.000;    0.000
611.404; 6292.850;    0.000;    0.000
611.526; 6309.850;    0.000;    0.000
611.647; 6228.850;    0.000;    0.000
611.769; 6121.850;    0.000;    0.000
611.890; 6149.850;    0.000;    0.000
612.012; 6165.850;    0.000;    0.000
612.133; 6128.850;    0.000;    0.000
612.255; 6181.850;    0.000;    0.000
612.377; 6138.850;    0.000;    0.000
612.498; 6178.850;    0.000;    0.000
612.619; 5950.850;    0.000;    0.000
612.741; 6193.850;    0.000;    0.000
612.862; 6132.850;    0.000;    0.000
612.984; 6042.850;    0.000;    0.000
613.105; 6156.850;    0.000;    0.000
613.226; 6232.850;    0.000;    0.000
613.348; 6220.850;    0.000;    0.000
613.469; 6265.850;    0.000;    0.000
613.590; 6074.850;    0.000;    0.000
613.712; 6079.850;    0.000;    0.000
613.833; 6231.850;    0.000;    0.000
613.954; 6385.850;    0.000;    0.000
614.076; 6208.850;    0.000;    0.000
614.197; 6200.850;    0.000;    0.000
614.318; 6285.850;    0.000;    0.000
614.439; 6155.850;    0.000;    0.000
614.560; 6270.850;    0.000;    0.000
614.682; 6315.850;    0.000;    0.000
614.803; 6175.850;    0.000;    0.000
614.924; 6122.850;    0.000;    0.000
615.045; 6137.850;    0.000;    0.000
615.166; 6224.850;    0.000;    0.000
615.287; 6321.850;    0.000;    0.000
615.408; 6629.850;    0.000;    0.000
615.529; 6736.850;    0.000;    0.000
615.650; 6654.850;    0.000;    0.000
615.771; 6419.850;    0.000;    0.000
615.892; 6618.850;    0.000;    0.000
616.013; 7004.850;    0.000;    0.000
616.134; 7287.850;    0.000;    0.000
616.255; 7208.850;    0.000;    0.000
616.376; 6797.850;    0.000;    0.000
616.497; 6384.850;    0.000;    0.000
616.618; 6485.850;    0.000;    0.000
616.739; 6393.850;    0.000;    0.000
616.860; 6325.850;    0.000;    0.000
616.981; 6218.850;    0.000;    0.000
617.102; 6161.850;    0.000;    0.000
617.222; 6100.850;    0.000;    0.000
617.343; 6208.850;    0.000;    0.000
617.464; 6086.850;    0.000;    0.000
617.585; 6058.850;    0.000;    0.000
617.705; 6032.850;    0.000;    0.000
617.826; 6161.850;    0.000;    0.000
617.947; 5949.850;    0.000;    0.000
618.068; 6014.850;    0.000;    0.000
618.188; 5994.850;    0.000;    0.000
618.309; 5973.850;    0.000;    0.000
618.430; 5900.850;    0.000;    0.000
618.550; 5840.850;    0.000;    0.000
618.671; 6004.850;    0.000;    0.000
618.791; 5878.850;    0.000;    0.000
618.912; 5888.850;    0.000;    0.000
619.033; 5779.850;    0.000;    0.000
619.153; 5841.850;    0.000;    0.000
619.274; 5807.850;    0.000;    0.000
619.394; 5810.850;    0.000;    0.000
619.515; 5819.850;    0.000;    0.000
619.635; 5689.850;    0.000;    0.000
619.756; 5834.850;    0.000;    0.000
619.876; 5851.850;    0.000;    0.000
619.996; 5796.850;    0.000;    0.000
620.117; 5885.850;    0.000;    0.000
620.237; 5840.850;    0.000;    0.000
620.358; 5858.850;    0.000;    0.000
620.478; 5793.850;    0.000;    0.000
620.598; 5785.850;    0.000;    0.000
620.719; 5924.850;    0.000;    0.000
620.839; 5821.850;    0.000;    0.000
620.959; 5814.850;    0.000;    0.000
621.079; 5808.850;    0.000;    0.000
621.200; 5828.850;    0.000;    0.000
621.320; 5719.850;    0.000;    0.000
621.440; 5660.850;    0.000;    0.000
621.560; 5734.850;    0.000;    0.000
621.681; 5785.850;    0.000;    0.000
621.801; 5749.850;    0.000;    0.000
621.921; 5885.850;    0.000;    0.000
622.041; 5811.850;    0.000;    0.000
622.161; 5740.850;    0.000;    0.000
622.281; 5848.850;    0.000;    0.000
622.401; 5806.850;    0.000;    0.000
622.521; 5798.850;    0.000;    0.000
622.641; 5895.850;    0.000;    0.000
622.761; 5717.850;    0.000;    0.000
622.882; 5797.850;    0.000;    0.000
623.002; 5724.850;    0.000;    0.000
623.121; 5622.850;    0.000;    0.000
623.241; 5883.850;    0.000;    0.000
623.361; 5688.850;    0.000;    0.000
623.481; 5794.850;    0.000;    0.000
623.601; 5701.850;    0.000;    0.000
623.721; 5686.850;    0.000;    0.000
623.841; 5811.850;    0.000;    0.000
623.961; 5727.850;    0.000;    0.000
624.081; 5666.850;    0.000;    0.000
624.201; 5688.850;    0.000;    0.000
624.320; 5724.850;    0.000;    0.000
624.440; 5611.850;    0.000;    0.000
624.560; 5689.850;    0.000;    0.000
624.680; 5704.850;    0.000;    0.000
624.799; 5643.850;    0.000;    0.000
624.919; 5755.850;    0.000;    0.000
625.039; 5631.850;    0.000;    0.000
625.159; 5632.850;    0.000;    0.000
625.278; 5641.850;    0.000;    0.000
625.398; 5589.850;    0.000;    0.000
625.518; 5669.850;    0.000;    0.000
625.637; 5653.850;    0.000;    0.000
625.757; 5473.850;    0.000;    0.000
625.876; 5496.850;    0.000;    0.000
625.996; 5690.850;    0.000;    0.000
626.115; 5614.850;    0.000;    0.000
626.235; 5624.850;    0.000;    0.000
626.354; 5560.850;    0.000;    0.000
626.474; 5587.850;    0.000;    0.000
626.594; 5508.850;    0.000;    0.000
626.713; 5466.850;    0.000;    0.000
626.832; 5689.850;    0.000;    0.000
626.952; 5581.850;    0.000;    0.000
627.071; 5619.850;    0.000;    0.000
627.191; 5423.850;    0.000;    0.000
627.310; 5638.850;    0.000;    0.000
627.429; 5558.850;    0.000;    0.000
627.549; 5584.850;    0.000;    0.000
627.668; 5493.850;    0.000;    0.000
627.787; 5545.850;    0.000;    0.000
627.907; 5500.850;    0.000;    0.000
628.026; 5476.850;    0.000;    0.000
628.145; 5463.850;    0.000;    0.000
628.264; 5398.850;    0.000;    0.000
628.384; 5450.850;    0.000;    0.000
628.503; 5359.850;    0.000;    0.000
628.622; 5449.850;    0.000;    0.000
628.741; 5357.850;    0.000;    0.000
628.860; 5438.850;    0.000;    0.000
628.980; 5456.850;    0.000;    0.000
629.099; 5451.850;    0.000;    0.000
629.218; 5418.850;    0.000;    0.000
629.337; 5468.850;    0.000;    0.000
629.456; 5576.850;    0.000;    0.000
629.575; 5463.850;    0.000;    0.000
629.694; 5531.850;    0.000;    0.000
629.813; 5416.850;    0.000;    0.000
629.932; 5501.850;    0.000;    0.000
630.051; 5367.850;    0.000;    0.000
630.170; 5473.850;    0.000;    0.000
630.289; 5341.850;    0.000;    0.000
630.408; 5265.850;    0.000;    0.000
630.527; 5390.850;    0.000;    0.000
630.646; 5495.850;    0.000;    0.000
630.764; 5332.850;    0.000;    0.000
630.883; 5416.850;    0.000;    0.000
631.002; 5368.850;    0.000;    0.000
631.121; 5386.850;    0.000;    0.000
631.240; 5321.850;    0.000;    0.000
631.359; 5261.850;    0.000;    0.000
631.477; 5307.850;    0.000;    0.000
631.596; 5347.850;    0.000;    0.000
631.715; 5372.850;    0.000;    0.000
631.834; 5290.850;    0.000;    0.000
631.952; 5310.850;    0.000;    0.000
632.071; 5353.850;    0.000;    0.000
632.190; 5303.850;    0.000;    0.000
632.308; 5433.850;    0.000;    0.000
632.427; 5370.850;    0.000;    0.000
632.546; 5304.850;    0.000;    0.000
632.664; 5314.850;    0.000;    0.000
632.783; 5371.850;    0.000;    0.000
632.901; 5198.850;    0.000;    0.000
633.020; 5292.850;    0.000;    0.000
633.138; 5237.850;    0.000;    0.000
633.257; 5436.850;    0.000;    0.000
633.375; 5251.850;    0.000;    0.000
633.494; 5296.850;    0.000;    0.000
633.612; 5369.850;    0.000;    0.000
633.731; 5204.850;    0.000;    0.000
633.849; 5323.850;    0.000;    0.000
633.968; 5287.850;    0.000;    0.000
634.086; 5271.850;    0.000;    0.000
634.204; 5312.850;    0.000;    0.000
634.323; 5187.850;    0.000;    0.000
634.441; 5183.850;    0.000;    0.000
634.559; 5247.850;    0.000;    0.000
634.678; 5251.850;    0.000;    0.000
634.796; 5147.850;    0.000;    0.000
634.914; 5185.850;    0.000;    0.000
635.032; 5253.850;    0.000;    0.000
635.151; 5165.850;    0.000;    0.000
635.269; 5205.850;    0.000;    0.000
635.387; 5115.850;    0.000;    0.000
635.505; 5140.850;    0.000;    0.000
635.623; 5120.850;    0.000;    0.000
635.742; 5104.850;    0.000;    0.000
635.860; 5260.850;    0.000;    0.000
635.978; 5101.850;    0.000;    0.000
636.096; 5211.850;    0.000;    0.000
636.214; 5079.850;    0.000;    0.000
636.332; 5105.850;    0.000;    0.000
636.450; 5181.850;    0.000;    0.000
636.568; 5212.850;    0.000;    0.000
636.686; 5129.850;    0.000;    0.000
636.804; 5113.850;    0.000;    0.000
636.922; 5050.850;    0.000;    0.000
637.040; 5150.850;    0.000;    0.000
637.158; 5165.850;    0.000;    0.000
637.276; 5114.850;    0.000;    0.000
637.394; 5178.850;    0.000;    0.000
637.512; 5096.850;    0.000;    0.000
637.629; 5208.850;    0.000;    0.000
637.747; 5168.850;    0.000;    0.000
637.865; 5270.850;    0.000;    0.000
637.983; 5136.850;    0.000;    0.000
638.101; 4999.850;    0.000;    0.000
638.218; 5043.850;    0.000;    0.000
638.336; 5113.850;    0.000;    0.000
638.454; 5082.850;    0.000;    0.000
638.572; 5051.850;    0.000;    0.000
638.689; 5065.850;    0.000;    0.000
638.807; 5109.850;    0.000;    0.000
638.925; 5006.850;    0.000;    0.000
639.042; 5164.850;    0.000;    0.000
639.160; 5137.850;    0.000;    0.000
639.278; 5074.850;    0.000;    0.000
639.395; 5098.850;    0.000;    0.000
639.513; 5112.850;    0.000;    0.000
639.630; 4969.850;    0.000;    0.000
639.748; 5026.850;    0.000;    0.000
639.865; 5046.850;    0.000;    0.000
639.983; 5066.850;    0.000;    0.000
640.100; 5035.850;    0.000;    0.000
640.218; 5100.850;    0.000;    0.000
640.335; 4996.850;    0.000;    0.000
640.453; 4968.850;    0.000;    0.000
640.570; 5230.850;    0.000;    0.000
640.688; 5097.850;    0.000;    0.000
640.805; 5059.850;    0.000;    0.000
640.922; 5063.850;    0.000;    0.000
641.040; 5007.850;    0.000;    0.000
641.157; 5022.850;    0.000;    0.000
641.274; 5018.850;    0.000;    0.000
641.391; 5141.850;    0.000;    0.000
641.509; 4907.850;    0.000;    0.000
641.626; 5063.850;    0.000;    0.000
641.743; 4926.850;    0.000;    0.000
641.860; 5110.850;    0.000;    0.000
641.978; 4972.850;    0.000;    0.000
642.095; 4875.850;    0.000;    0.000
642.212; 5013.850;    0.000;    0.000
642.329; 5118.850;    0.000;    0.000
642.446; 5028.850;    0.000;    0.000
642.563; 5141.850;    0.000;    0.000
642.681; 5083.850;    0.000;    0.000
642.798; 5104.850;    0.000;    0.000
642.915; 5132.850;    0.000;    0.000
643.032; 5113.850;    0.000;    0.000
643.149; 4972.850;    0.000;    0.000
643.266; 5071.850;    0.000;    0.000
643.383; 5093.850;    0.000;    0.000
643.500; 5035.850;    0.000;    0.000
643.617; 5056.850;    0.000;    0.000
643.734; 5035.850;    0.000;    0.000
643.850; 4995.850;    0.000;    0.000
643.967; 5076.850;    0.000;    0.000
644.084; 5063.850;    0.000;    0.000
644.201; 5043.850;    0.000;    0.000
644.318; 5029.850;    0.000;    0.000
644.435; 5035.850;    0.000;    0.000
644.552; 5113.850;    0.000;    0.000
644.668; 5075.850;    0.000;    0.000
644.785; 5053.850;    0.000;    0.000
644.902; 5040.850;    0.000;    0.000
645.019; 5041.850;    0.000;    0.000
645.135; 5118.850;    0.000;    0.000
645.252; 5123.850;    0.000;    0.000
645.369; 5162.850;    0.000;    0.000
645.485; 5067.850;    0.000;    0.000
645.602; 5020.850;    0.000;    0.000
645.719; 5090.850;    0.000;    0.000
645.835; 5129.850;    0.000;    0.000
645.952; 5182.850;    0.000;    0.000
646.068; 5249.850;    0.000;    0.000
646.185; 5065.850;    0.000;    0.000
646.302; 5132.850;    0.000;    0.000
646.418; 5130.850;    0.000;    0.000
646.535; 5166.850;    0.000;    0.000
646.651; 5154.850;    0.000;    0.000
646.768; 5254.850;    0.000;    0.000
646.884; 5111.850;    0.000;    0.000
647.000; 5130.850;    0.000;    0.000
647.117; 5144.850;    0.000;    0.000
647.233; 5092.850;    0.000;    0.000
647.350; 5204.850;    0.000;    0.000
647.466; 5107.850;    0.000;    0.000
647.582; 5172.850;    0.000;    0.000
647.699; 5261.850;    0.000;    0.000
647.815; 5241.850;    0.000;    0.000
647.931; 5317.850;    0.000;    0.000
648.047; 5143.850;    0.000;    0.000
648.164; 5329.850;    0.000;    0.000
648.280; 5314.850;    0.000;    0.000
648.396; 5436.850;    0.000;    0.000
648.512; 5236.850;    0.000;    0.000
648.629; 5241.850;    0.000;    0.000
648.745; 5182.850;    0.000;    0.000
648.861; 5296.850;    0.000;    0.000
648.977; 5289.850;    0.000;    0.000
649.093; 5385.850;    0.000;    0.000
649.209; 5328.850;    0.000;    0.000
649.325; 5254.850;    0.000;    0.000
649.441; 5331.850;    0.000;    0.000
649.557; 5422.850;    0.000;    0.000
649.673; 5344.850;    0.000;    0.000
649.789; 5377.850;    0.000;    0.000
649.905; 5336.850;    0.000;    0.000
650.021; 5377.850;    0.000;    0.000
650.137; 5466.850;    0.000;    0.000
650.253; 5395.850;    0.000;    0.000
650.369; 5376.850;    0.000;    0.000
650.485; 5279.850;    0.000;    0.000
650.601; 5468.850;    0.000;    0.000
650.717; 5386.850;    0.000;    0.000
650.833; 5513.850;    0.000;    0.000
650.948; 5449.850;    0.000;    0.000
651.064; 5343.850;    0.000;    0.000
651.180; 5469.850;    0.000;    0.000
651.296; 5512.850;    0.000;    0.000
651.411; 5358.850;    0.000;    0.000
651.527; 5446.850;    0.000;    0.000
651.643; 5545.850;    0.000;    0.000
651.759; 5566.850;    0.000;    0.000
651.874; 5421.850;    0.000;    0.000
651.990; 5588.850;    0.000;    0.000
652.105; 5536.850;    0.000;    0.000
652.221; 5552.850;    0.000;    0.000
652.337; 5628.850;    0.000;    0.000
652.452; 5604.850;    0.000;    0.000
652.568; 5683.850;    0.000;    0.000
652.683; 5641.850;    0.000;    0.000
652.799; 5673.850;    0.000;    0.000
652.914; 5627.850;    0.000;    0.000
653.030; 5787.850;    0.000;    0.000
653.145; 5725.850;    0.000;    0.000
653.261; 5820.850;    0.000;    0.000
653.376; 5784.850;    0.000;    0.000
653.492; 5927.850;    0.000;    0.000
653.607; 5831.850;    0.000;    0.000
653.722; 5954.850;    0.000;    0.000
653.838; 5975.850;    0.000;    0.000
653.953; 6027.850;    0.000;    0.000
654.068; 6057.850;    0.000;    0.000
654.184; 6139.850;    0.000;    0.000
654.299; 6262.850;    0.000;    0.000
654.414; 6045.850;    0.000;    0.000
654.530; 6287.850;    0.000;    0.000
654.645; 6292.850;    0.000;    0.000
654.760; 6523.850;    0.000;    0.000
654.875; 6474.850;    0.000;    0.000
654.990; 6566.850;    0.000;    0.000
655.106; 6733.850;    0.000;    0.000
655.221; 6675.850;    0.000;    0.000
655.336; 6715.850;    0.000;    0.000
655.451; 6710.850;    0.000;    0.000
655.566; 7008.850;    0.000;    0.000
655.681; 7158.850;    0.000;    0.000
655.796; 7321.850;    0.000;    0.000
655.911; 7393.850;    0.000;    0.000
656.026; 7592.850;    0.000;    0.000
656.141; 7693.850;    0.000;    0.000
656.256; 7900.850;    0.000;    0.000
656.371; 7878.850;    0.000;    0.000
656.486; 7922.850;    0.000;    0.000
656.601; 7829.850;    0.000;    0.000
656.716; 7770.850;    0.000;    0.000
656.831; 7719.850;    0.000;    0.000
656.946; 7626.850;    0.000;    0.000
657.060; 7622.850;    0.000;    0.000
657.175; 7244.850;    0.000;    0.000
657.290; 7468.850;    0.000;    0.000
657.405; 7347.850;    0.000;    0.000
657.520; 7216.850;    0.000;    0.000
657.634; 7148.850;    0.000;    0.000
657.749; 7015.850;    0.000;    0.000
657.864; 6979.850;    0.000;    0.000
657.979; 6733.850;    0.000;    0.000
658.093; 6885.850;    0.000;    0.000
658.208; 6651.850;    0.000;    0.000
658.323; 6581.850;    0.000;    0.000
658.437; 6579.850;    0.000;    0.000
658.552; 6632.850;    0.000;    0.000
658.666; 6474.850;    0.000;    0.000
658.781; 6427.850;    0.000;    0.000
658.895; 6280.850;    0.000;    0.000
659.010; 6349.850;    0.000;    0.000
659.125; 6403.850;    0.000;    0.000
659.239; 6142.850;    0.000;    0.000
659.353; 6259.850;    0.000;    0.000
659.468; 6037.850;    0.000;    0.000
659.582; 6202.850;    0.000;    0.000
659.697; 6069.850;    0.000;    0.000
659.811; 5896.850;    0.000;    0.000
659.926; 5875.850;    0.000;    0.000
660.040; 5934.850;    0.000;    0.000
660.154; 5898.850;    0.000;    0.000
660.269; 5882.850;    0.000;    0.000
660.383; 5953.850;    0.000;    0.000
660.497; 5939.850;    0.000;    0.000
660.612; 5716.850;    0.000;    0.000
660.726; 5802.850;    0.000;    0.000
660.840; 5734.850;    0.000;    0.000
660.954; 5776.850;    0.000;    0.000
661.068; 5657.850;    0.000;    0.000
661.183; 5749.850;    0.000;    0.000
661.297; 5614.850;    0.000;    0.000
661.411; 5646.850;    0.000;    0.000
661.525; 5617.850;    0.000;    0.000
661.639; 5434.850;    0.000;    0.000
661.753; 5460.850;    0.000;    0.000
661.867; 5536.850;    0.000;    0.000
661.981; 5468.850;    0.000;    0.000
662.095; 5362.850;    0.000;    0.000
662.209; 5304.850;    0.000;    0.000
662.323; 5415.850;    0.000;    0.000
662.437; 5287.850;    0.000;    0.000
662.551; 5221.850;    0.000;    0.000
662.665; 5320.850;    0.000;    0.000
662.779; 5271.850;    0.000;    0.000
662.893; 5261.850;    0.000;    0.000
663.007; 5287.850;    0.000;    0.000
663.121; 5176.850;    0.000;    0.000
663.235; 5237.850;    0.000;    0.000
663.349; 5143.850;    0.000;    0.000
663.462; 5146.850;    0.000;    0.000
663.576; 5057.850;    0.000;    0.000
663.690; 5053.850;    0.000;    0.000
663.804; 5052.850;    0.000;    0.000
663.917; 5085.850;    0.000;    0.000
664.031; 5002.850;    0.000;    0.000
664.145; 4894.850;    0.000;    0.000
664.258; 5000.850;    0.000;    0.000
664.372; 4863.850;    0.000;    0.000
664.486; 4992.850;    0.000;    0.000
664.599; 4880.850;    0.000;    0.000
664.713; 5026.850;    0.000;    0.000
664.827; 4841.850;    0.000;    0.000
664.940; 4883.850;    0.000;    0.000
665.054; 4915.850;    0.000;    0.000
665.167; 4801.850;    0.000;    0.000
665.281; 4930.850;    0.000;    0.000
665.394; 4878.850;    0.000;    0.000
665.508; 4769.850;    0.000;    0.000
665.621; 4865.850;    0.000;    0.000
665.735; 4822.850;    0.000;    0.000
665.848; 4842.850;    0.000;    0.000
665.961; 4864.850;    0.000;    0.000
666.075; 4714.850;    0.000;    0.000
666.188; 4708.850;    0.000;    0.000
666.301; 4784.850;    0.000;    0.000
666.415; 4718.850;    0.000;    0.000
666.528; 4721.850;    0.000;    0.000
666.641; 4624.850;    0.000;    0.000
666.755; 4691.850;    0.000;    0.000
666.868; 4723.850;    0.000;    0.000
666.981; 4792.850;    0.000;    0.000
667.094; 4722.850;    0.000;    0.000
667.207; 4619.850;    0.000;    0.000
667.321; 4503.850;    0.000;    0.000
667.434; 4665.850;    0.000;    0.000
667.547; 4691.850;    0.000;    0.000
667.660; 4614.850;    0.000;    0.000
667.773; 4543.850;    0.000;    0.000
667.886; 4603.850;    0.000;    0.000
667.999; 4602.850;    0.000;    0.000
668.112; 4477.850;    0.000;    0.000
668.225; 4550.850;    0.000;    0.000
668.338; 4545.850;    0.000;    0.000
668.451; 4555.850;    0.000;    0.000
668.564; 4498.850;    0.000;    0.000
668.677; 4464.850;    0.000;    0.000
668.790; 4430.850;    0.000;    0.000
668.903; 4470.850;    0.000;    0.000
669.016; 4511.850;    0.000;    0.000
669.129; 4506.850;    0.000;    0.000
669.242; 4451.850;    0.000;    0.000
669.354; 4504.850;    0.000;    0.000
669.467; 4474.850;    0.000;    0.000
669.580; 4475.850;    0.000;    0.000
669.693; 4442.850;    0.000;    0.000
669.806; 4417.850;    0.000;    0.000
669.918; 4481.850;    0.000;    0.000
670.031; 4354.850;    0.000;    0.000
670.144; 4411.850;    0.000;    0.000
670.256; 4308.850;    0.000;    0.000
670.369; 4330.850;    0.000;    0.000
670.482; 4370.850;    0.000;    0.000
670.594; 4344.850;    0.000;    0.000
670.707; 4415.850;    0.000;    0.000
670.820; 4369.850;    0.000;    0.000
670.932; 4204.850;    0.000;    0.000
671.045; 4378.850;    0.000;    0.000
671.157; 4319.850;    0.000;    0.000
671.270; 4327.850;    0.000;    0.000
671.382; 4310.850;    0.000;    0.000
671.495; 4313.850;    0.000;    0.000
671.607; 4342.850;    0.000;    0.000
671.720; 4315.850;    0.000;    0.000
671.832; 4161.850;    0.000;    0.000
671.944; 4314.850;    0.000;    0.000
672.057; 4298.850;    0.000;    0.000
672.169; 4276.850;    0.000;    0.000
672.281; 4321.850;    0.000;    0.000
672.394; 4332.850;    0.000;    0.000
672.506; 4338.850;    0.000;    0.000
672.618; 4252.850;    0.000;    0.000
672.731; 4123.850;    0.000;    0.000
672.843; 4266.850;    0.000;    0.000
672.955; 4307.850;    0.000;    0.000
673.067; 4330.850;    0.000;    0.000
673.180; 4311.850;    0.000;    0.000
673.292; 4097.850;    0.000;    0.000
673.404; 4146.850;    0.000;    0.000
673.516; 4163.850;    0.000;    0.000
673.628; 4188.850;    0.000;    0.000
673.740; 4201.850;    0.000;    0.000
673.852; 4210.850;    0.000;    0.000
673.964; 4256.850;    0.000;    0.000
674.076; 4219.850;    0.000;    0.000
674.188; 4223.850;    0.000;    0.000
674.300; 4150.850;    0.000;    0.000
674.412; 4186.850;    0.000;    0.000
674.524; 4279.850;    0.000;    0.000
674.636; 4159.850;    0.000;    0.000
674.748; 4189.850;    0.000;    0.000
674.860; 4200.850;    0.000;    0.000
674.972; 4156.850;    0.000;    0.000
675.084; 4107.850;    0.000;    0.000
675.196; 4225.850;    0.000;    0.000
675.307; 4138.850;    0.000;    0.000
675.419; 4093.850;    0.000;    0.000
675.531; 4159.850;    0.000;    0.000
675.643; 4171.850;    0.000;    0.000
675.755; 4076.850;    0.000;    0.000
675.866; 4210.850;    0.000;    0.000
675.978; 4102.850;    0.000;    0.000
676.090; 4155.850;    0.000;    0.000
676.201; 4173.850;    0.000;    0.000
676.313; 4035.850;    0.000;    0.000
676.425; 4102.850;    0.000;    0.000
676.536; 4104.850;    0.000;    0.000
676.648; 4123.850;    0.000;    0.000
676.759; 4116.850;    0.000;    0.000
676.871; 4043.850;    0.000;    0.000
676.983; 4158.850;    0.000;    0.000
677.094; 4139.850;    0.000;    0.000
677.206; 3985.850;    0.000;    0.000
677.317; 4097.850;    0.000;    0.000
677.429; 4121.850;    0.000;    0.000
677.540; 4048.850;    0.000;    0.000
677.651; 3995.850;    0.000;    0.000
677.763; 4036.850;    0.000;    0.000
677.874; 4044.850;    0.000;    0.000
677.986; 4068.850;    0.000;    0.000
678.097; 4039.850;    0.000;    0.000
678.208; 4099.850;    0.000;    0.000
678.320; 4119.850;    0.000;    0.000
678.431; 3899.850;    0.000;    0.000
678.542; 4085.850;    0.000;    0.000
678.653; 4029.850;    0.000;    0.000
678.765; 4003.850;    0.000;    0.000
678.876; 4015.850;    0.000;    0.000
678.987; 3967.850;    0.000;    0.000
679.098; 3986.850;    0.000;    0.000
679.209; 3972.850;    0.000;    0.000
679.320; 3933.850;    0.000;    0.000
679.432; 3979.850;    0.000;    0.000
679.543; 3881.850;    0.000;    0.000
679.654; 3972.850;    0.000;    0.000
679.765; 3913.850;    0.000;    0.000
679.876; 3956.850;    0.000;    0.000
679.987; 3987.850;    0.000;    0.000
680.098; 4032.850;    0.000;    0.000
680.209; 3931.850;    0.000;    0.000
680.320; 3906.850;    0.000;    0.000
680.431; 3997.850;    0.000;    0.000
680.542; 3961.850;    0.000;    0.000
680.653; 3881.850;    0.000;    0.000
680.763; 3833.850;    0.000;    0.000
680.874; 3954.850;    0.000;    0.000
680.985; 3856.850;    0.000;    0.000
681.096; 3904.850;    0.000;    0.000
681.207; 3914.850;    0.000;    0.000
681.318; 3896.850;    0.000;    0.000
681.428; 3888.850;    0.000;    0.000
681.539; 3875.850;    0.000;    0.000
681.650; 3921.850;    0.000;    0.000
681.760; 4004.850;    0.000;    0.000
681.871; 3871.850;    0.000;    0.000
681.982; 3923.850;    0.000;    0.000
682.093; 3959.850;    0.000;    0.000
682.203; 3880.850;    0.000;    0.000
682.314; 3927.850;    0.000;    0.000
682.424; 3949.850;    0.000;    0.000
682.535; 3919.850;    0.000;    0.000
682.646; 3929.850;    0.000;    0.000
682.756; 3943.850;    0.000;    0.000
682.867; 3947.850;    0.000;    0.000
682.977; 3788.850;    0.000;    0.000
683.088; 3849.850;    0.000;    0.000
683.198; 3862.850;    0.000;    0.000
683.308; 3877.850;    0.000;    0.000
683.419; 3955.850;    0.000;    0.000
683.529; 3835.850;    0.000;    0.000
683.640; 3878.850;    0.000;    0.000
683.750; 3914.850;    0.000;    0.000
683.860; 3854.850;    0.000;    0.000
683.971; 3875.850;    0.000;    0.000
684.081; 3799.850;    0.000;    0.000
684.191; 3914.850;    0.000;    0.000
684.301; 3806.850;    0.000;    0.000
684.412; 3848.850;    0.000;    0.000
684.522; 3813.850;    0.000;    0.000
684.632; 3921.850;    0.000;    0.000
684.742; 3842.850;    0.000;    0.000
684.852; 3752.850;    0.000;    0.000
684.963; 3889.850;    0.000;    0.000
685.073; 3868.850;    0.000;    0.000
685.183; 3876.850;    0.000;    0.000
685.293; 3802.850;    0.000;    0.000
685.403; 3859.850;    0.000;    0.000
685.513; 3860.850;    0.000;    0.000
685.623; 3907.850;    0.000;    0.000
685.733; 3895.850;    0.000;    0.000
685.843; 3888.850;    0.000;    0.000
685.953; 3847.850;    0.000;    0.000
686.063; 3781.850;    0.000;    0.000
686.173; 3779.850;    0.000;    0.000
686.283; 3839.850;    0.000;    0.000
686.393; 3879.850;    0.000;    0.000
686.503; 3895.850;    0.000;    0.000
686.612; 3790.850;    0.000;    0.000
686.722; 3867.850;    0.000;    0.000
686.832; 3773.850;    0.000;    0.000
686.942; 3841.850;    0.000;    0.000
687.052; 3937.850;    0.000;    0.000
687.161; 3816.850;    0.000;    0.000
687.271; 3835.850;    0.000;    0.000
687.381; 3926.850;    0.000;    0.000
687.491; 3872.850;    0.000;    0.000
687.600; 3890.850;    0.000;    0.000
687.710; 3809.850;    0.000;    0.000
687.820; 3705.850;    0.000;    0.000
687.929; 3834.850;    0.000;    0.000
688.039; 3827.850;    0.000;    0.000
688.148; 3822.850;    0.000;    0.000
688.258; 3862.850;    0.000;    0.000
688.367; 3822.850;    0.000;    0.000
688.477; 3748.850;    0.000;    0.000
688.586; 3725.850;    0.000;    0.000
688.696; 3790.850;    0.000;    0.000
688.805; 3836.850;    0.000;    0.000
688.915; 3738.850;    0.000;    0.000
689.024; 3799.850;    0.000;    0.000
689.134; 3702.850;    0.000;    0.000
689.243; 3656.850;    0.000;    0.000
689.352; 3765.850;    0.000;    0.000
689.462; 3804.850;    0.000;    0.000
689.571; 3735.850;    0.000;    0.000
689.680; 3824.850;    0.000;    0.000
689.790; 3777.850;    0.000;    0.000
689.899; 3782.850;    0.000;    0.000
690.008; 3815.850;    0.000;    0.000
690.117; 3737.850;    0.000;    0.000
690.227; 3795.850;    0.000;    0.000
690.336; 3722.850;    0.000;    0.000
690.445; 3824.850;    0.000;    0.000
690.554; 3765.850;    0.000;    0.000
690.663; 3798.850;    0.000;    0.000
690.772; 3723.850;    0.000;    0.000
690.881; 3820.850;    0.000;    0.000
690.990; 3757.850;    0.000;    0.000
691.099; 3798.850;    0.000;    0.000
691.209; 3750.850;    0.000;    0.000
691.318; 3841.850;    0.000;    0.000
691.427; 3739.850;    0.000;    0.000
691.536; 3712.850;    0.000;    0.000
691.644; 3716.850;    0.000;    0.000
691.753; 3696.850;    0.000;    0.000
691.862; 3728.850;    0.000;    0.000
691.971; 3789.850;    0.000;    0.000
692.080; 3719.850;    0.000;    0.000
692.189; 3835.850;    0.000;    0.000
692.298; 3835.850;    0.000;    0.000
692.406; 3721.850;    0.000;    0.000
692.515; 3826.850;    0.000;    0.000
692.624; 3795.850;    0.000;    0.000
692.733; 3779.850;    0.000;    0.000
692.842; 3835.850;    0.000;    0.000
692.950; 3748.850;    0.000;    0.000
693.059; 3726.850;    0.000;    0.000
693.168; 3737.850;    0.000;    0.000
693.276; 3847.850;    0.000;    0.000
693.385; 3745.850;    0.000;    0.000
693.494; 3803.850;    0.000;    0.000
693.602; 3780.850;    0.000;    0.000
693.711; 3758.850;    0.000;    0.000
693.819; 3839.850;    0.000;    0.000
693.928; 3712.850;    0.000;    0.000
694.036; 3659.850;    0.000;    0.000
694.145; 3765.850;    0.000;    0.000
694.253; 3806.850;    0.000;    0.000
694.362; 3711.850;    0.000;    0.000
694.470; 3829.850;    0.000;    0.000
694.579; 3769.850;    0.000;    0.000
694.687; 3828.850;    0.000;    0.000
694.795; 3804.850;    0.000;    0.000
694.904; 3711.850;    0.000;    0.000
695.012; 3690.850;    0.000;    0.000
695.120; 3828.850;    0.000;    0.000
695.229; 3851.850;    0.000;    0.000
695.337; 3713.850;    0.000;    0.000
695.445; 3839.850;    0.000;    0.000
695.553; 3760.850;    0.000;    0.000
695.662; 3721.850;    0.000;    0.000
695.770; 3777.850;    0.000;    0.000
695.878; 3764.850;    0.000;    0.000
695.986; 3797.850;    0.000;    0.000
696.094; 3765.850;    0.000;    0.000
696.202; 3750.850;    0.000;    0.000
696.310; 3822.850;    0.000;    0.000
696.419; 3735.850;    0.000;    0.000
696.527; 3864.850;    0.000;    0.000
696.635; 3816.850;    0.000;    0.000
696.743; 3862.850;    0.000;    0.000
696.851; 3718.850;    0.000;    0.000
696.959; 3793.850;    0.000;    0.000
697.067; 3773.850;    0.000;    0.000
697.174; 3659.850;    0.000;    0.000
697.282; 3604.850;    0.000;    0.000
697.390; 3760.850;    0.000;    0.000
697.498; 3782.850;    0.000;    0.000
697.606; 3734.850;    0.000;    0.000
697.714; 3689.850;    0.000;    0.000
697.822; 3777.850;    0.000;    0.000
697.929; 3729.850;    0.000;    0.000
698.037; 3802.850;    0.000;    0.000
698.145; 3676.850;    0.000;    0.000
698.253; 3694.850;    0.000;    0.000
698.360; 3726.850;    0.000;    0.000
698.468; 3834.850;    0.000;    0.000
698.576; 3832.850;    0.000;    0.000
698.683; 3917.850;    0.000;    0.000
698.791; 3852.850;    0.000;    0.000
698.899; 3816.850;    0.000;    0.000
699.006; 3812.850;    0.000;    0.000
699.114; 3835.850;    0.000;    0.000
699.221; 3836.850;    0.000;    0.000
699.329; 3831.850;    0.000;    0.000
699.436; 3805.850;    0.000;    0.000
699.544; 3739.850;    0.000;    0.000
699.651; 3747.850;    0.000;    0.000
699.759; 3755.850;    0.000;    0.000
699.866; 3743.850;    0.000;    0.000
699.974; 3720.850;    0.000;    0.000
700.081; 3735.850;    0.000;    0.000
700.188; 3793.850;    0.000;    0.000
700.296; 3761.850;    0.000;    0.000
700.403; 3761.850;    0.000;    0.000
700.510; 3783.850;    0.000;    0.000
700.618; 3741.850;    0.000;    0.000
700.725; 3862.850;    0.000;    0.000
700.832; 3724.850;    0.000;    0.000
700.940; 3728.850;    0.000;    0.000
701.047; 3685.850;    0.000;    0.000
701.154; 3728.850;    0.000;    0.000
701.261; 3710.850;    0.000;    0.000
701.368; 3791.850;    0.000;    0.000
701.475; 3781.850;    0.000;    0.000
701.582; 3778.850;    0.000;    0.000
701.690; 3701.850;    0.000;    0.000
701.797; 3824.850;    0.000;    0.000
701.904; 3765.850;    0.000;    0.000
702.011; 3782.850;    0.000;    0.000
702.118; 3816.850;    0.000;    0.000
702.225; 3750.850;    0.000;    0.000
702.332; 3761.850;    0.000;    0.000
702.439; 3666.850;    0.000;    0.000
702.546; 3768.850;    0.000;    0.000
702.652; 3691.850;    0.000;    0.000
702.759; 3848.850;    0.000;    0.000
702.866; 3696.850;    0.000;    0.000
702.973; 3694.850;    0.000;    0.000
703.080; 3865.850;    0.000;    0.000
703.187; 3709.850;    0.000;    0.000
703.294; 3847.850;    0.000;    0.000
703.400; 3477.850;    0.000;    0.000
703.507;  722.850;    0.000;    0.000
703.614;  332.850;    0.000;    0.000
703.720;  344.850;    0.000;    0.000
703.827;  339.850;    0.000;    0.000
703.934;  322.850;    0.000;    0.000
704.040;  300.850;    0.000;    0.000
704.147;  343.850;    0.000;    0.000
704.254;  321.850;    0.000;    0.000
704.360;  321.850;    0.000;    0.000
704.467;  362.850;    0.000;    0.000
704.573;  337.850;    0.000;    0.000
704.680;  301.850;    0.000;    0.000
704.786;  300.850;    0.000;    0.000
704.893;  324.850;    0.000;    0.000
704.999;  296.850;    0.000;    0.000
705.106;  344.850;    0.000;    0.000

